M [M_sun]	stat_err M	sys_err M	R [km]	stat_err R	sys_err R	stability
4.746871e-01	9.850140e-03	2.170000e-05	1.704406e+03	3.708229e+01	5.200000e-02	1
5.088800e-01	1.055321e-02	2.320000e-05	1.665140e+03	3.623571e+01	4.900000e-02	1
5.455221e-01	1.130557e-02	2.490000e-05	1.626779e+03	3.540305e+01	5.200000e-02	1
5.847862e-01	1.211054e-02	2.660000e-05	1.589333e+03	3.459651e+01	2.600000e-02	1
6.268570e-01	1.297157e-02	2.860000e-05	1.552678e+03	3.380839e+01	4.400000e-02	1
6.719314e-01	1.389238e-02	3.050000e-05	1.516890e+03	3.302694e+01	1.010000e-01	1
7.202199e-01	1.487687e-02	3.280000e-05	1.481913e+03	3.227849e+01	7.800000e-02	1
7.719464e-01	1.592911e-02	3.510000e-05	1.447759e+03	3.154078e+01	2.000000e-02	1
8.273501e-01	1.705347e-02	3.760000e-05	1.414324e+03	3.082492e+01	6.000000e-03	1
8.866853e-01	1.825444e-02	4.020000e-05	1.381666e+03	3.011584e+01	3.100000e-02	1
9.502230e-01	1.953677e-02	4.310000e-05	1.349676e+03	2.943078e+01	4.100000e-02	1
1.018251e+00	2.090541e-02	4.600000e-05	1.318458e+03	2.876282e+01	7.800000e-02	1
1.091076e+00	2.236552e-02	4.900000e-05	1.287976e+03	2.810556e+01	4.400000e-02	1
1.169022e+00	2.392246e-02	5.200000e-05	1.258131e+03	2.746489e+01	3.500000e-02	1
1.252435e+00	2.558164e-02	5.700000e-05	1.228941e+03	2.683825e+01	1.500000e-02	1
1.341678e+00	2.734888e-02	6.000000e-05	1.200409e+03	2.623026e+01	1.800000e-02	1
1.437138e+00	2.922984e-02	6.400000e-05	1.172518e+03	2.563405e+01	2.100000e-02	1
1.539223e+00	3.123049e-02	6.900000e-05	1.145252e+03	2.505004e+01	3.800000e-02	1
1.648363e+00	3.335662e-02	7.400000e-05	1.118577e+03	2.448096e+01	2.300000e-02	1
1.765009e+00	3.561418e-02	7.900000e-05	1.092465e+03	2.392768e+01	2.000000e-02	1
1.889638e+00	3.800895e-02	8.400000e-05	1.066976e+03	2.338381e+01	1.500000e-02	1
2.022747e+00	4.054670e-02	9.000000e-05	1.041996e+03	2.285441e+01	2.100000e-02	1
2.164856e+00	4.323258e-02	9.500000e-05	1.017576e+03	2.233582e+01	1.500000e-02	1
2.316509e+00	4.607179e-02	1.020000e-04	9.936866e+02	2.183263e+01	1.740000e-02	1
2.478268e+00	4.906853e-02	1.080000e-04	9.702982e+02	2.134250e+01	1.160000e-02	1
2.650717e+00	5.222677e-02	1.160000e-04	9.474140e+02	2.086029e+01	1.160000e-02	1
2.834455e+00	5.554938e-02	1.230000e-04	9.249993e+02	2.039046e+01	1.450000e-02	1
3.030099e+00	5.903803e-02	1.310000e-04	9.030656e+02	1.993182e+01	1.740000e-02	1
3.238276e+00	6.269348e-02	1.390000e-04	8.815956e+02	1.948502e+01	8.700000e-03	1
3.459620e+00	6.651449e-02	1.470000e-04	8.605660e+02	1.904830e+01	1.450000e-02	1
3.694770e+00	7.049824e-02	1.570000e-04	8.399624e+02	1.862308e+01	1.160000e-02	1
3.944359e+00	7.463955e-02	1.660000e-04	8.197703e+02	1.820855e+01	8.700000e-03	1
4.209010e+00	7.893095e-02	1.750000e-04	7.999811e+02	1.780306e+01	1.730000e-02	1
4.489328e+00	8.336184e-02	1.860000e-04	7.805888e+02	1.740717e+01	1.740000e-02	1
4.785885e+00	8.791877e-02	1.950000e-04	7.615819e+02	1.702107e+01	1.450000e-02	1
5.099216e+00	9.258450e-02	2.060000e-04	7.429228e+02	1.664569e+01	1.450000e-02	1
5.429799e+00	9.733778e-02	2.170000e-04	7.246259e+02	1.627771e+01	2.020000e-02	1
5.778041e+00	1.021538e-01	2.270000e-04	7.066738e+02	1.591933e+01	1.160000e-02	1
6.144266e+00	1.070028e-01	2.380000e-04	6.890521e+02	1.556910e+01	8.700000e-03	1
6.528690e+00	1.118511e-01	2.480000e-04	6.717433e+02	1.522773e+01	1.160000e-02	1
6.931406e+00	1.166605e-01	2.600000e-04	6.547476e+02	1.489432e+01	1.160000e-02	1
7.352356e+00	1.213893e-01	2.700000e-04	6.380416e+02	1.456881e+01	1.160000e-02	1
7.791313e+00	1.259921e-01	2.790000e-04	6.216253e+02	1.425006e+01	1.160000e-02	1
8.247857e+00	1.304219e-01	2.890000e-04	6.054931e+02	1.393923e+01	5.800000e-03	1
8.721345e+00	1.346308e-01	2.970000e-04	5.896188e+02	1.363514e+01	8.700000e-03	1
9.210891e+00	1.385725e-01	3.040000e-04	5.740053e+02	1.333726e+01	1.160000e-02	1
9.715343e+00	1.422054e-01	3.110000e-04	5.586439e+02	1.304542e+01	8.700000e-03	1
1.023326e+01	1.454960e-01	3.200000e-04	5.435230e+02	1.275971e+01	8.700000e-03	1
1.076288e+01	1.484232e-01	3.200000e-04	5.286397e+02	1.247940e+01	8.700000e-03	1
1.130215e+01	1.509867e-01	3.200000e-04	5.139854e+02	1.220372e+01	8.700000e-03	1
1.184865e+01	1.532081e-01	3.200000e-04	4.995542e+02	1.193300e+01	8.700000e-03	1
1.239965e+01	1.551432e-01	3.200000e-04	4.853432e+02	1.166587e+01	8.700000e-03	1
1.295209e+01	1.568868e-01	3.100000e-04	4.713496e+02	1.140265e+01	8.700000e-03	1
1.350261e+01	1.585776e-01	3.000000e-04	4.575733e+02	1.114255e+01	8.700000e-03	1
1.404756e+01	1.604066e-01	2.900000e-04	4.440086e+02	1.088523e+01	8.700000e-03	1
1.458303e+01	1.626080e-01	2.700000e-04	4.306612e+02	1.063042e+01	8.700000e-03	1
1.510496e+01	1.654574e-01	2.600000e-04	4.175282e+02	1.037724e+01	5.800000e-03	1
1.560912e+01	1.692466e-01	2.400000e-04	4.046126e+02	1.012547e+01	8.700000e-03	1
1.609124e+01	1.742614e-01	2.200000e-04	3.919201e+02	9.874841e+00	5.800000e-03	1
1.654706e+01	1.807470e-01	1.900000e-04	3.794536e+02	9.625088e+00	5.800000e-03	1
1.697245e+01	1.888717e-01	1.700000e-04	3.672190e+02	9.375826e+00	5.800000e-03	1
1.736345e+01	1.987075e-01	1.400000e-04	3.552248e+02	9.127091e+00	2.900000e-03	1
1.771641e+01	2.102201e-01	1.100000e-04	3.434770e+02	8.878036e+00	2.900000e-03	1
1.802806e+01	2.232704e-01	9.000000e-05	3.319813e+02	8.629269e+00	5.800000e-03	1
1.829558e+01	2.376374e-01	6.000000e-05	3.207522e+02	8.380607e+00	2.900000e-03	1
1.851669e+01	2.530364e-01	4.000000e-05	3.097926e+02	8.131668e+00	5.800000e-03	1
1.868969e+01	2.691431e-01	1.000000e-05	2.991199e+02	7.883232e+00	2.900000e-03	1
1.881353e+01	2.856155e-01	1.000000e-05	2.887341e+02	7.635138e+00	2.900000e-03	1
1.888781e+01	3.021136e-01	1.000000e-05	2.786496e+02	7.387651e+00	2.900000e-03	1
1.891277e+01	3.183076e-01	2.000000e-05	2.688753e+02	7.140990e+00	0.000000e+00	1
1.888932e+01	3.338952e-01	2.000000e-05	2.594167e+02	6.896089e+00	2.900000e-03	0
1.881897e+01	3.486048e-01	2.000000e-05	2.502857e+02	6.652510e+00	0.000000e+00	0
1.870382e+01	3.622051e-01	1.000000e-05	2.414821e+02	6.411283e+00	2.900000e-03	0
1.854645e+01	3.745037e-01	1.000000e-05	2.330204e+02	6.172855e+00	0.000000e+00	0
1.834989e+01	3.853541e-01	1.000000e-05	2.248978e+02	5.936918e+00	0.000000e+00	0
1.811752e+01	3.946499e-01	0.000000e+00	2.171200e+02	5.705092e+00	0.000000e+00	0
1.785299e+01	4.023297e-01	0.000000e+00	2.096929e+02	5.476760e+00	0.000000e+00	0
1.756014e+01	4.083686e-01	1.000000e-05	2.026106e+02	5.252982e+00	0.000000e+00	0
1.724289e+01	4.127794e-01	0.000000e+00	1.958789e+02	5.033568e+00	0.000000e+00	0
1.690521e+01	4.156063e-01	3.000000e-05	1.894950e+02	4.819129e+00	0.000000e+00	0
1.655096e+01	4.169170e-01	1.400000e-04	1.834530e+02	4.609843e+00	2.900000e-03	0
1.618387e+01	4.167996e-01	1.240000e-03	1.777472e+02	4.405826e+00	1.740000e-02	0
1.580763e+01	4.153831e-01	5.670000e-03	1.723746e+02	4.207350e+00	7.530000e-02	0
1.542499e+01	4.127052e-01	9.450000e-03	1.673208e+02	4.013426e+00	1.101000e-01	0
1.504076e+01	4.091732e-01	4.090000e-03	1.625973e+02	3.828213e+00	2.900000e-02	0
1.464388e+01	4.028069e-01	1.025000e-02	1.580390e+02	3.625558e+00	1.130000e-01	0
1.422689e+01	3.922132e-01	4.365000e-02	1.535822e+02	3.401684e+00	4.259000e-01	0
1.379869e+01	3.792755e-01	8.578000e-02	1.493484e+02	3.187787e+00	7.274000e-01	0
1.337013e+01	3.661603e-01	7.812000e-02	1.454595e+02	2.998613e+00	4.666000e-01	0
1.295398e+01	3.543763e-01	3.890000e-02	1.419995e+02	2.832228e+00	1.160000e-02	0
1.256531e+01	3.442277e-01	1.340000e-03	1.390321e+02	2.684393e+00	3.100000e-01	0
1.221315e+01	3.351724e-01	1.428000e-02	1.365197e+02	2.556457e+00	3.506000e-01	0
1.189161e+01	3.269427e-01	1.273000e-02	1.343232e+02	2.451226e+00	2.377000e-01	0
1.159158e+01	3.197185e-01	5.300000e-04	1.322976e+02	2.365486e+00	6.090000e-02	0
1.130031e+01	3.131622e-01	1.412000e-02	1.302981e+02	2.282598e+00	1.130000e-01	0
1.100115e+01	3.059436e-01	2.009000e-02	1.281653e+02	2.173596e+00	1.999000e-01	0
1.068821e+01	2.978422e-01	1.601000e-02	1.258383e+02	2.033531e+00	1.826000e-01	0
1.036260e+01	2.894008e-01	8.180000e-03	1.233520e+02	1.874812e+00	1.246000e-01	0
1.002567e+01	2.803792e-01	3.330000e-03	1.208106e+02	1.708018e+00	1.014000e-01	0
9.680139e+00	2.707912e-01	6.769000e-03	1.184344e+02	1.557612e+00	1.506000e-01	0
